Time(sec)   Acceleration (m/s/s)
0	0.0024346566
0.03906	0.0024349123
0.07812	0.0024345164
0.11718	0.0024334689
0.15624	0.0024317736
0.1953	0.0024294287
0.23436	0.0024264364
0.27342	0.0024227994
0.31248	0.002418517
0.35154	0.0024135896
0.3906	0.0024080187
0.42966	0.0024018019
0.46872	0.00239494
0.50778	0.0023874302
0.54684	0.0023792744
0.5859	0.0023704683
0.62496	0.0023610153
0.66402	0.0023509146
0.70308	0.0023401669
0.74214	0.0023287761
0.7812	0.0023167441
0.82026	0.002304073
0.85932	0.0022907654
0.89838	0.0022768265
0.93744	0.0022622573
0.9765	0.0022470643
1.01556	0.0022312526
1.05462	0.0022148278
1.09368	0.0021977985
1.13274	0.0021801704
1.1718	0.0021619529
1.21086	0.0021431516
1.24992	0.0021237753
1.28898	0.00210383
1.32804	0.0020833203
1.3671	0.0020622543
1.40616	0.0020406351
1.44522	0.0020184718
1.48428	0.0019957692
1.52334	0.0019725329
1.5624	0.0019487687
1.60146	0.0019244858
1.64052	0.0018996884
1.67958	0.001874386
1.71864	0.0018485846
1.7577	0.0018222934
1.79676	0.0017955196
1.83582	0.0017682727
1.87488	0.0017405604
1.91394	0.0017123868
1.953	0.0016837617
1.99206	0.00165469
2.03112	0.0016251788
2.07018	0.0015952362
2.10924	0.0015648687
2.1483	0.0015340837
2.18736	0.0015028893
2.22642	0.001471294
2.26548	0.0014393051
2.30454	0.001406935
2.3436	0.001374192
2.38266	0.001341089
2.42172	0.0013076392
2.46078	0.0012738538
2.49984	0.001239745
2.5389	0.0012053218
2.57796	0.0011705939
2.61702	0.0011355726
2.65608	0.0011002665
2.69514	0.0010646863
2.7342	0.0010288421
2.77326	9.927464E-4
2.81232	9.5641072E-4
2.85138	9.1984751E-4
2.89044	8.8306868E-4
2.9295	8.4608452E-4
2.96856	8.0890861E-4
3.00762	7.7155359E-4
3.04668	7.3402862E-4
3.08574	6.9634408E-4
3.1248	6.5850819E-4
3.16386	6.20528E-4
3.20292	5.8241153E-4
3.24198	5.441653E-4
3.28104	5.0579881E-4
3.3201	4.6731764E-4
3.35916	4.287319E-4
3.39822	3.9004825E-4
3.43728	3.512769E-4
3.47634	3.1242385E-4
3.5154	2.7349796E-4
3.55446	2.3450706E-4
3.59352	1.9546164E-4
3.63258	1.5636877E-4
3.67164	1.172373E-4
3.7107	7.8076383E-5
3.74976	3.8895702E-5
3.78882	-2.9708511E-7
3.82788	-3.9490681E-5
3.86694	-7.8672404E-5
3.906	-1.1783191E-4
3.94506	-1.5695747E-4
3.98412	-1.9603723E-4
4.02318	-2.3505832E-4
4.06224	-2.7400953E-4
4.1013	-3.1287685E-4
4.14036	-3.5164855E-4
4.17942	-3.9030917E-4
4.21848	-4.2884628E-4
4.25754	-4.6724374E-4
4.2966	-5.0548639E-4
4.33566	-5.4355967E-4
4.37472	-5.8144843E-4
4.41378	-6.1913838E-4
4.45284	-6.5661345E-4
4.4919	-6.9386045E-4
4.53096	-7.3086687E-4
4.57002	-7.6761691E-4
4.60908	-8.040964E-4
4.64814	-8.4029343E-4
4.6872	-8.7619068E-4
4.72626	-9.117757E-4
4.76532	-9.4703466E-4
4.80438	-9.8195515E-4
4.84344	-0.001016527
4.8825	-0.0010507392
4.92156	-0.0010845834
4.96062	-0.001118051
4.99968	-0.0011511332
5.03874	-0.0011838189
5.0778	-0.0012160991
5.11686	-0.0012479628
5.15592	-0.0012793999
5.19498	-0.0013103983
5.23404	-0.0013409479
5.2731	-0.00137104
5.31216	-0.0014006655
5.35122	-0.0014298146
5.39028	-0.0014584809
5.42934	-0.0014866564
5.4684	-0.0015143332
5.50746	-0.0015415059
5.54652	-0.0015681645
5.58558	-0.0015943039
5.62464	-0.0016199138
5.6637	-0.0016449888
5.70276	-0.0016695193
5.74182	-0.0016934995
5.78088	-0.0017169239
5.81994	-0.0017397858
5.859	-0.0017620789
5.89806	-0.0017837982
5.93712	-0.0018049434
5.97618	-0.0018255107
6.01524	-0.0018454991
6.0543	-0.0018649061
6.09336	-0.0018837328
6.13242	-0.0019019778
6.17148	-0.0019196395
6.21054	-0.0019367191
6.2496	-0.0019532185
6.28866	-0.0019691365
6.32772	-0.0019844733
6.36678	-0.001999229
6.40584	-0.0020134031
6.4449	-0.0020269949
6.48396	-0.002040003
6.52302	-0.0020524285
6.56208	-0.0020642724
6.60114	-0.0020755357
6.6402	-0.0020862206
6.67926	-0.0020963284
6.71832	-0.0021058603
6.75738	-0.0021148201
6.79644	-0.0021232086
6.8355	-0.0021310241
6.87456	-0.0021382705
6.91362	-0.0021449456
6.95268	-0.0021510525
6.99174	-0.0021565911
7.0308	-0.002161563
7.06986	-0.0021659697
7.10892	-0.0021698137
7.14798	-0.0021730951
7.18704	-0.002175814
7.2261	-0.0021779705
7.26516	-0.0021795653
7.30422	-0.0021805998
7.34328	-0.0021810754
7.38234	-0.002180992
7.4214	-0.0021803512
7.46046	-0.0021791539
7.49952	-0.0021774033
7.53858	-0.0021751025
7.57764	-0.0021722543
7.6167	-0.002168862
7.65576	-0.002164928
7.69482	-0.0021604571
7.73388	-0.0021554506
7.77294	-0.0021499117
7.812	-0.0021438404
7.85106	-0.0021372385
7.89012	-0.0021301071
7.92918	-0.0021224471
7.96824	-0.0021142573
8.0073	-0.0021055411
8.04636	-0.0020962965
8.08542	-0.002086525
8.12448	-0.0020762269
8.16354	-0.0020653991
8.2026	-0.0020540422
8.24166	-0.0020421537
8.28072	-0.0020297329
8.31978	-0.0020167797
8.35884	-0.0020032916
8.3979	-0.001989274
8.43696	-0.0019747251
8.47602	-0.001959643
8.51508	-0.0019440311
8.55414	-0.0019278909
8.5932	-0.0019112209
8.63226	-0.0018940265
8.67132	-0.0018763079
8.71038	-0.001858067
8.74944	-0.001839309
8.7885	-0.0018200361
8.82756	-0.0018002517
8.86662	-0.0017799574
8.90568	-0.001759159
8.94474	-0.0017378586
8.9838	-0.0017160601
9.02286	-0.0016937659
9.06192	-0.0016709802
9.10098	-0.0016477066
9.14004	-0.0016239465
9.1791	-0.0015997016
9.21816	-0.0015749736
9.25722	-0.001549764
9.29628	-0.001524076
9.33534	-0.0014979134
9.3744	-0.0014712806
9.41346	-0.0014441822
9.45252	-0.0014166284
9.49158	-0.0013886228
9.53064	-0.0013601727
9.5697	-0.0013312865
9.60876	-0.0013019703
9.64782	-0.0012722276
9.68688	-0.0012420637
9.72594	-0.0012114867
9.765	-0.0011805003
9.80406	-0.0011491111
9.84312	-0.001117327
9.88218	-0.0010851518
9.92124	-0.0010525962
9.9603	-0.001019663
9.99936	-9.8636007E-4
10.03842	-9.5269649E-4
10.07748	-9.1868082E-4
10.11654	-8.8431954E-4
10.1556	-8.4962311E-4
10.19466	-8.1460102E-4
10.23372	-7.79263E-4
10.27278	-7.4361662E-4
10.31184	-7.0767136E-4
10.3509	-6.7143806E-4
10.38996	-6.349244E-4
10.42902	-5.9814198E-4
10.46808	-5.6109785E-4
10.50714	-5.2380411E-4
10.5462	-4.8627036E-4
10.58526	-4.4850734E-4
10.62432	-4.1052387E-4
10.66338	-3.7233179E-4
10.70244	-3.3394121E-4
10.7415	-2.9536251E-4
10.78056	-2.5660745E-4
10.81962	-2.1769204E-4
10.85868	-1.7862883E-4
10.89774	-1.3943513E-4
10.9368	-1.0012611E-4
10.97586	-6.0718468E-5
11.01492	-2.1226447E-5
11.05398	1.8333809E-5
11.09304	5.7945383E-5
11.1321	9.7594021E-5
11.17116	1.3726411E-4
11.21022	1.7694028E-4
11.24928	2.1660638E-4
11.28834	2.5624766E-4
11.3274	2.958507E-4
11.36646	3.3540036E-4
11.40552	3.7487896E-4
11.44458	4.1426557E-4
11.48364	4.5354751E-4
11.5227	4.9270362E-4
11.56176	5.3171715E-4
11.60082	5.7057051E-4
11.63988	6.0924511E-4
11.67894	6.4772328E-4
11.718	6.8598619E-4
11.75706	7.2401764E-4
11.79612	7.6180251E-4
11.83518	7.9932619E-4
11.87424	8.3657321E-4
11.9133	8.7352955E-4
11.95236	9.1018434E-4
11.99142	9.4652049E-4
12.03048	9.8252597E-4
12.06954	0.0010181894
12.1086	0.0010534942
12.14766	0.0010884295
12.18672	0.0011229808
12.22578	0.0011571377
12.26484	0.0011908851
12.3039	0.0012242137
12.34296	0.0012571102
12.38202	0.0012895645
12.42108	0.0013215674
12.46014	0.0013531054
12.4992	0.00138417
12.53826	0.0014147517
12.57732	0.0014448398
12.61638	0.0014744237
12.65544	0.0015034969
12.6945	0.0015320488
12.73356	0.0015600739
12.77262	0.001587565
12.81168	0.0016145135
12.85074	0.0016409137
12.8898	0.0016667582
12.92886	0.0016920447
12.96792	0.0017167665
13.00698	0.0017409193
13.04604	0.0017645006
13.0851	0.0017875058
13.12416	0.0018099344
13.16322	0.0018317851
13.20228	0.0018530579
13.24134	0.0018737516
13.2804	0.0018938674
13.31946	0.0019134055
13.35852	0.0019323657
13.39758	0.001950749
13.43664	0.0019685554
13.4757	0.0019857878
13.51476	0.0020024472
13.55382	0.0020185344
13.59288	0.0020340527
13.63194	0.002049002
13.671	0.0020633841
13.71006	0.0020772023
13.74912	0.0020904555
13.78818	0.002103147
13.82724	0.0021152783
13.8663	0.0021268494
13.90536	0.0021378616
13.94442	0.002148318
13.98348	0.0021582185
14.02254	0.0021675641
14.0616	0.0021763569
14.10066	0.0021845959
14.13972	0.0021922815
14.17878	0.0021994162
14.21784	0.0022060031
14.2569	0.002212043
14.29596	0.0022175353
14.33502	0.0022224867
14.37408	0.002226893
14.41314	0.0022307597
14.4522	0.0022340874
14.49126	0.0022368774
14.53032	0.0022391304
14.56938	0.0022408491
14.60844	0.0022420361
14.6475	0.0022426926
14.68656	0.0022428204
14.72562	0.0022424242
14.76468	0.0022415045
14.80374	0.0022400606
14.8428	0.0022380946
14.88186	0.0022356048
14.92092	0.0022325903
14.95998	0.0022290523
14.99904	0.0022249879
15.0381	0.0022204007
15.07716	0.0022152894
15.11622	0.0022096549
15.15528	0.0022034981
15.19434	0.0021968213
15.2334	0.0021896272
15.27246	0.002181917
15.31152	0.0021736924
15.35058	0.002164954
15.38964	0.0021557064
15.4287	0.0021459481
15.46776	0.0021356836
15.50682	0.0021249104
15.54588	0.0021136344
15.58494	0.0021018565
15.624	0.0020895787
15.66306	0.0020768049
15.70212	0.0020635368
15.74118	0.0020497742
15.78024	0.0020355219
15.8193	0.0020207801
15.85836	0.0020055503
15.89742	0.0019898329
15.93648	0.0019736334
15.97554	0.0019569527
16.0146	0.001939793
16.05366	0.0019221587
16.09272	0.0019040517
16.13178	0.0018854739
16.17084	0.0018664272
16.2099	0.0018469111
16.24896	0.0018269276
16.28802	0.0018064773
16.32708	0.0017855649
16.36614	0.0017641905
16.4052	0.0017423588
16.44426	0.0017200724
16.48332	0.001697336
16.52238	0.0016741513
16.56144	0.0016505247
16.6005	0.0016264588
16.63956	0.0016019574
16.67862	0.0015770261
16.71768	0.0015516681
16.75674	0.0015258883
16.7958	0.0014996898
16.83486	0.0014730757
16.87392	0.0014460506
16.91298	0.0014186166
16.95204	0.0013907798
16.9911	0.001362543
17.03016	0.0013339104
17.06922	0.0013048842
17.10828	0.0012754714
17.14734	0.0012456765
17.1864	0.0012155042
17.22546	0.0011849629
17.26452	0.0011540569
17.30358	0.0011227917
17.34264	0.0010911743
17.3817	0.0010592067
17.42076	0.001026898
17.45982	9.9425123E-4
17.49888	9.6127121E-4
17.53794	9.2796549E-4
17.577	8.9433855E-4
17.61606	8.6039681E-4
17.65512	8.2614368E-4
17.69418	7.9158794E-4
17.73324	7.5673632E-4
17.7723	7.2159702E-4
17.81136	6.8617992E-4
17.85042	6.5049629E-4
17.88948	6.1455577E-4
17.92854	5.7837379E-4
17.9676	5.4196007E-4
18.00666	5.0532447E-4
18.04572	4.6847933E-4
18.08478	4.3143771E-4
18.12384	3.9421113E-4
18.1629	3.56813E-4
18.20196	3.1925784E-4
18.24102	2.8155612E-4
18.28008	2.4372596E-4
18.31914	2.0577787E-4
18.3582	1.677273E-4
18.39726	1.2958896E-4
18.43632	9.1375936E-5
18.47538	5.310034E-5
18.51444	1.4775426E-5
18.5535	-2.3586298E-5
18.59256	-6.1968511E-5
18.63162	-1.0035872E-4
18.67068	-1.3874006E-4
18.70974	-1.7709917E-4
18.7488	-2.1542064E-4
18.78786	-2.5368779E-4
18.82692	-2.9188781E-4
18.86598	-3.300046E-4
18.90504	-3.6802453E-4
18.9441	-4.0593338E-4
18.98316	-4.4371874E-4
19.02222	-4.8136634E-4
19.06128	-5.1886253E-4
19.10034	-5.5619478E-4
19.1394	-5.9334865E-4
19.17846	-6.3030932E-4
19.21752	-6.6706253E-4
19.25658	-7.035963E-4
19.29564	-7.3989351E-4
19.3347	-7.7593891E-4
19.37376	-8.1171711E-4
19.41282	-8.4721331E-4
19.45188	-8.8241336E-4
19.49094	-9.1730459E-4
19.53	-9.518683E-4
19.56906	-9.8609198E-4
19.60812	-0.0010199628
19.64718	-0.0010534674
19.68624	-0.0010865926
19.7253	-0.0011193267
19.76436	-0.0011516593
19.80342	-0.0011835785
19.84248	-0.0012150731
19.88154	-0.001246131
19.9206	-0.0012767449
19.95966	-0.0013069039
19.99872	-0.0013366019
20.03778	-0.0013658306
20.07684	-0.0013945801
20.1159	-0.001422842
20.15496	-0.0014506104
20.19402	-0.0014778775
20.23308	-0.0015046342
20.27214	-0.0015308768
20.3112	-0.0015565998
20.35026	-0.0015817987
20.38932	-0.0016064677
20.42838	-0.0016306042
20.46744	-0.0016542036
20.5065	-0.0016772628
20.54556	-0.0016997789
20.58462	-0.0017217488
20.62368	-0.0017431715
20.66274	-0.0017640461
20.7018	-0.0017843671
20.74086	-0.0018041373
20.77992	-0.0018233499
20.81898	-0.0018420038
20.85804	-0.0018600965
20.8971	-0.0018776261
20.93616	-0.0018945888
20.97522	-0.0019109833
21.01428	-0.0019268061
21.05334	-0.0019420556
21.0924	-0.0019567294
21.13146	-0.0019708257
21.17052	-0.0019843434
21.20958	-0.0019972789
21.24864	-0.0020096308
21.2877	-0.0020213964
21.32676	-0.0020325762
21.36582	-0.0020431688
21.40488	-0.0020531736
21.44394	-0.0020625912
21.483	-0.0020714211
21.52206	-0.0020796657
21.56112	-0.0020873261
21.60018	-0.0020944052
21.63924	-0.0021009065
21.6783	-0.0021068303
21.71736	-0.0021121776
21.75642	-0.0021169497
21.79548	-0.0021211471
21.83454	-0.0021247709
21.8736	-0.0021278226
21.91266	-0.002130305
21.95172	-0.0021322177
21.99078	-0.0021335632
22.02984	-0.002134342
22.0689	-0.0021345523
22.10796	-0.0021341963
22.14702	-0.0021332743
22.18608	-0.0021317899
22.22514	-0.0021297427
22.2642	-0.0021271367
22.30326	-0.0021239723
22.34232	-0.0021202549
22.38138	-0.0021159839
22.42044	-0.0021111615
22.4595	-0.0021057906
22.49856	-0.0020998717
22.53762	-0.002093405
22.57668	-0.0020863933
22.61574	-0.0020788391
22.6548	-0.0020707416
22.69386	-0.002062104
22.73292	-0.002052929
22.77198	-0.0020432172
22.81104	-0.0020329714
22.8501	-0.0020221944
22.88916	-0.0020108874
22.92822	-0.0019990538
22.96728	-0.0019866964
23.00634	-0.0019738165
23.0454	-0.001960418
23.08446	-0.0019465063
23.12352	-0.0019320835
23.16258	-0.0019171562
23.20164	-0.0019017271
23.2407	-0.0018857993
23.27976	-0.0018693746
23.31882	-0.001852457
23.35788	-0.0018350459
23.39694	-0.0018171426
23.436	-0.0017987524
23.47506	-0.0017798707
23.51412	-0.0017605037
23.55318	-0.0017406486
23.59224	-0.0017203087
23.6313	-0.0016994846
23.67036	-0.0016781787
23.70942	-0.0016563942
23.74848	-0.0016341291
23.78754	-0.0016113888
23.8266	-0.0015881724
23.86566	-0.0015644832
23.90472	-0.0015403225
23.94378	-0.0015156945
23.98284	-0.0014906009
24.0219	-0.0014650466
24.06096	-0.0014390367
24.10002	-0.0014125732
24.13908	-0.0013856612
24.17814	-0.0013583033
24.2172	-0.0013305046
24.25626	-0.0013022706
24.29532	-0.001273604
24.33438	-0.0012445105
24.37344	-0.0012149975
24.4125	-0.001185069
24.45156	-0.0011547314
24.49062	-0.0011239891
24.52968	-0.0010928506
24.56874	-0.001061323
24.6078	-0.001029414
24.64686	-9.9713006E-4
24.68592	-9.6448368E-4
24.72498	-9.3148226E-4
24.76404	-8.9813764E-4
24.8031	-8.6445843E-4
24.84216	-8.3045466E-4
24.88122	-7.961365E-4
24.92028	-7.6151781E-4
24.95934	-7.2660614E-4
24.9984	-6.9141479E-4
25.03746	-6.5595448E-4
25.07652	-6.2023602E-4
25.11558	-5.8427285E-4
25.15464	-5.4807606E-4
25.1937	-5.1165874E-4
25.23276	-4.7503591E-4
25.27182	-4.3822162E-4
25.31088	-4.0123023E-4
25.34994	-3.6407247E-4
25.389	-3.2676589E-4
25.42806	-2.8932404E-4
25.46712	-2.5175972E-4
25.50618	-2.1408709E-4
25.54524	-1.7632123E-4
25.5843	-1.3847615E-4
25.62336	-1.0056445E-4
25.66242	-6.2599681E-5
25.70148	-2.4597936E-5
25.74054	1.3429319E-5
25.7796	5.1465677E-5
25.81866	8.9500762E-5
25.85772	1.2751777E-4
25.89678	1.6550672E-4
25.93584	2.034506E-4
25.9749	2.4133938E-4
26.01396	2.7916023E-4
26.05302	3.1689823E-4
26.09208	3.5454298E-4
26.13114	3.9207947E-4
26.1702	4.2949719E-4
26.20926	4.6678023E-4
26.24832	5.0391598E-4
26.28738	5.4089209E-4
26.32644	5.7769889E-4
26.3655	6.1432012E-4
26.40456	6.5074367E-4
26.44362	6.8695697E-4
26.48268	7.2294729E-4
26.52174	7.5870101E-4
26.5608	7.9420702E-4
26.59986	8.294534E-4
26.63892	8.6442664E-4
26.67798	8.9911557E-4
26.71704	9.3350634E-4
26.7561	9.67586E-4
26.79516	0.0010013429
26.83422	0.0010347639
26.87328	0.001067834
26.91234	0.001100542
26.9514	0.0011328749
26.99046	0.0011648208
27.02952	0.0011963722
27.06858	0.0012275156
27.10764	0.0012582443
27.1467	0.0012885481
27.18576	0.0013184197
27.22482	0.0013478498
27.26388	0.001376829
27.30294	0.0014053516
27.342	0.0014334055
27.38106	0.0014609873
27.42012	0.0014880878
27.45918	0.0015146994
27.49824	0.0015408161
27.5373	0.0015664292
27.57636	0.0015915324
27.61542	0.0016161172
27.65448	0.0016401756
27.69354	0.001663701
27.7326	0.0016866891
27.77166	0.0017091359
27.81072	0.0017310346
27.84978	0.0017523824
27.88884	0.0017731738
27.9279	0.0017934032
27.96696	0.0018130685
28.00602	0.0018321641
28.04508	0.001850688
28.08414	0.0018686359
28.1232	0.0018860061
28.16226	0.001902797
28.20132	0.0019190053
28.24038	0.0019346327
28.27944	0.0019496745
28.3185	0.0019641302
28.35756	0.0019779988
28.39662	0.00199128
28.43568	0.0020039755
28.47474	0.0020160851
28.5138	0.0020276093
28.55286	0.0020385517
28.59192	0.0020489087
28.63098	0.0020586854
28.67004	0.0020678809
28.7091	0.0020764991
28.74816	0.0020845434
28.78722	0.0020920181
28.82628	0.0020989284
28.86534	0.0021052793
28.9044	0.0021110744
28.94346	0.0021163137
28.98252	0.0021210041
29.02158	0.0021251476
29.06064	0.0021287482
29.0997	0.0021318114
29.13876	0.0021343454
29.17782	0.0021363537
29.21688	0.0021378452
29.25594	0.0021388252
29.295	0.0021392993
29.33406	0.0021392707
29.37312	0.0021387462
29.41218	0.0021377269
29.45124	0.0021362142
29.4903	0.0021342121
29.52936	0.0021317204
29.56842	0.0021287402
29.60748	0.0021252737
29.64654	0.0021213228
29.6856	0.0021168901
29.72466	0.0021119793
29.76372	0.0021065894
29.80278	0.0021007266
29.84184	0.0020943909
29.8809	0.0020875868
29.91996	0.0020803197
29.95902	0.002072593
29.99808	0.002064412
30.03714	0.002055777
30.0762	0.0020466934
30.11526	0.0020371621
30.15432	0.0020271904
30.19338	0.0020167776
30.23244	0.0020059289
30.2715	0.0019946462
30.31056	0.0019829315
30.34962	0.0019707878
30.38868	0.0019582158
30.42774	0.001945215
30.4668	0.0019317869
30.50586	0.0019179306
30.54492	0.0019036445
30.58398	0.0018889308
30.62304	0.0018737872
30.6621	0.0018582113
30.70116	0.0018422064
30.74022	0.0018257674
30.77928	0.0018088966
30.81834	0.0017915929
30.8574	0.0017738554
30.89646	0.0017556823
30.93552	0.0017370716
30.97458	0.0017180223
31.01364	0.0016985329
31.0527	0.0016786004
31.09176	0.0016582236
31.13082	0.0016374006
31.16988	0.0016161296
31.20894	0.0015944091
31.248	0.0015722376
31.28706	0.0015496172
31.32612	0.001526545
31.36518	0.0015030217
31.40424	0.001479049
31.4433	0.0014546283
31.48236	0.0014297611
31.52142	0.0014044509
31.56048	0.0013787007
31.59954	0.0013525159
31.6386	0.0013259003
31.67766	0.0012988605
31.71672	0.0012714004
31.75578	0.0012435274
31.79484	0.0012152449
31.8339	0.0011865607
31.87296	0.0011574786
31.91202	0.0011280042
31.95108	0.0010981423
31.99014	0.0010679001
32.0292	0.0010372796
32.06826	0.0010062887
32.10732	9.7492853E-4
32.14638	9.432038E-4
32.18544	9.111227E-4
32.2245	8.7868817E-4
32.26356	8.4590904E-4
32.30262	8.1279162E-4
32.34168	7.7934474E-4
32.38074	7.4557894E-4
32.4198	7.1150728E-4
32.45886	6.7713987E-4
32.49792	6.424894E-4
32.53698	6.0756964E-4
32.57604	5.7239362E-4
32.6151	5.3697311E-4
32.65416	5.0132396E-4
32.69322	4.6546163E-4
32.73228	4.2940407E-4
32.77134	3.9316389E-4
32.8104	3.5676077E-4
32.84946	3.202116E-4
32.88852	2.8353058E-4
32.92758	2.4673761E-4
32.96664	2.0985005E-4
33.0057	1.7288337E-4
33.04476	1.3585683E-4
33.08382	9.879034E-5
33.12288	6.1700468E-5
33.16194	2.4604447E-5
33.201	-1.2478596E-5
33.24006	-4.9531234E-5
33.27912	-8.6535638E-5
33.31818	-1.2347602E-4
33.35724	-1.6033774E-4
33.3963	-1.9710272E-4
33.43536	-2.3375547E-4
33.47442	-2.7028037E-4
33.51348	-3.066617E-4
33.55254	-3.4288101E-4
33.5916	-3.7892507E-4
33.63066	-4.1477826E-4
33.66972	-4.5042413E-4
33.70878	-4.8585034E-4
33.74784	-5.2103845E-4
33.7869	-5.5597621E-4
33.82596	-5.9064957E-4
33.86502	-6.2504434E-4
33.90408	-6.5914745E-4
33.94314	-6.9294762E-4
33.9822	-7.2643097E-4
34.02126	-7.5958777E-4
34.06032	-7.9240528E-4
34.09938	-8.2487069E-4
34.13844	-8.5697543E-4
34.1775	-8.887084E-4
34.21656	-9.2005747E-4
34.25562	-9.510122E-4
34.29468	-9.8156208E-4
34.33374	-0.0010116973
34.3728	-0.0010414105
34.41186	-0.0010706925
34.45092	-0.0010995365
34.48998	-0.0011279347
34.52904	-0.0011558813
34.5681	-0.0011833659
34.60716	-0.0012103842
34.64622	-0.0012369289
34.68528	-0.0012629912
34.72434	-0.0012885681
34.7634	-0.001313655
34.80246	-0.001338245
34.84152	-0.0013623331
34.88058	-0.0013859173
34.91964	-0.0014089909
34.9587	-0.0014315518
34.99776	-0.0014535958
35.03682	-0.0014751214
35.07588	-0.0014961273
35.11494	-0.0015166132
35.154	-0.0015365791
35.19306	-0.0015560234
35.23212	-0.0015749497
35.27118	-0.0015933586
35.31024	-0.0016112504
35.3493	-0.0016286273
35.38836	-0.001645489
35.42742	-0.0016618366
35.46648	-0.0016776707
35.50554	-0.0016929937
35.5446	-0.0017078043
35.58366	-0.001722104
35.62272	-0.0017358957
35.66178	-0.0017491815
